Gamma	Asphericity	Radius	Volume	Area	MorseEnergy	NormalityEn	CircularityEn	TotalOPSEnergy	RMSAngleDeficit
300000	0.00348465	2.21432	41.2355	60.6218	-210	0.0106863	0.00494542	-209.984	0.427424
295880	0.00348463	2.21432	41.2355	60.6218	-210	0.0108351	0.00501426	-209.984	0.427423
291816	0.00348461	2.21432	41.2356	60.6218	-210	0.010986	0.00508406	-209.984	0.427422
287808	0.00348459	2.21432	41.2356	60.6218	-210	0.011139	0.00515482	-209.984	0.42742
283855	0.00348457	2.21432	41.2356	60.6218	-210	0.0112941	0.00522658	-209.983	0.427419
279957	0.00348455	2.21432	41.2356	60.6218	-210	0.0114514	0.00529933	-209.983	0.427418
276112	0.00348453	2.21432	41.2356	60.6218	-210	0.0116108	0.00537309	-209.983	0.427416
272320	0.00348451	2.21432	41.2356	60.6218	-210	0.0117725	0.00544788	-209.983	0.427415
268580	0.00348449	2.21432	41.2356	60.6218	-210	0.0119364	0.00552371	-209.983	0.427414
264891	0.00348447	2.21432	41.2356	60.6218	-210	0.0121027	0.00560059	-209.982	0.427412
261253	0.00348444	2.21432	41.2357	60.6218	-210	0.0122712	0.00567855	-209.982	0.427411
257665	0.00348442	2.21432	41.2357	60.6218	-210	0.0124421	0.00575759	-209.982	0.427409
254126	0.0034844	2.21432	41.2357	60.6218	-210	0.0126153	0.00583773	-209.982	0.427408
250636	0.00348438	2.21432	41.2357	60.6218	-210	0.012791	0.00591898	-209.981	0.427406
247194	0.00348435	2.21432	41.2357	60.6218	-210	0.0129691	0.00600137	-209.981	0.427405
243799	0.00348433	2.21432	41.2357	60.6218	-210	0.0131497	0.0060849	-209.981	0.427403
240450	0.0034843	2.21432	41.2357	60.6218	-210	0.0133329	0.00616959	-209.98	0.427402
237148	0.00348428	2.21432	41.2358	60.6218	-210	0.0135185	0.00625546	-209.98	0.4274
233891	0.00348425	2.21432	41.2358	60.6218	-210	0.0137068	0.00634253	-209.98	0.427398
230679	0.00348423	2.21432	41.2358	60.6218	-210	0.0138976	0.0064308	-209.98	0.427397
227510	0.0034842	2.21432	41.2358	60.6218	-210	0.0140912	0.0065203	-209.979	0.427395
224386	0.00348418	2.21432	41.2358	60.6218	-210	0.0142874	0.00661106	-209.979	0.427393
221304	0.00348415	2.21432	41.2358	60.6218	-210	0.0144864	0.00670307	-209.979	0.427392
218265	0.00348412	2.21432	41.2359	60.6218	-210	0.0146881	0.00679636	-209.979	0.42739
215267	0.0034841	2.21432	41.2359	60.6218	-210	0.0148926	0.00689095	-209.978	0.427388
212310	0.00348407	2.21432	41.2359	60.6218	-210	0.0151	0.00698685	-209.978	0.427386
209394	0.00348404	2.21432	41.2359	60.6218	-210	0.0153103	0.00708409	-209.978	0.427384
206519	0.00348401	2.21432	41.2359	60.6218	-210	0.0155235	0.00718268	-209.977	0.427383
203682	0.00348399	2.21432	41.2359	60.6218	-210	0.0157397	0.00728265	-209.977	0.427381
200885	0.00348396	2.21432	41.236	60.6218	-210	0.0159588	0.007384	-209.977	0.427379
198126	0.00348393	2.21432	41.236	60.6218	-210	0.0161811	0.00748676	-209.976	0.427377
195405	0.0034839	2.21432	41.236	60.6218	-210	0.0164064	0.00759095	-209.976	0.427375
192721	0.00348387	2.21432	41.236	60.6218	-210	0.0166349	0.0076966	-209.976	0.427373
190074	0.00348384	2.21432	41.236	60.6218	-210	0.0168665	0.00780371	-209.975	0.427371
187464	0.00348381	2.21432	41.236	60.6218	-210	0.0171014	0.00791231	-209.975	0.427369
184889	0.00348377	2.21432	41.2361	60.6218	-210	0.0173395	0.00802242	-209.975	0.427367
182350	0.00348374	2.21432	41.2361	60.6218	-210	0.017581	0.00813406	-209.974	0.427365
179845	0.00348371	2.21432	41.2361	60.6218	-210	0.0178258	0.00824725	-209.974	0.427363
177375	0.00348368	2.21432	41.2361	60.6218	-210	0.0180741	0.00836202	-209.974	0.427361
174939	0.00348364	2.21432	41.2361	60.6218	-210	0.0183257	0.00847839	-209.973	0.427358
172537	0.00348361	2.21433	41.2362	60.6218	-210	0.0185809	0.00859637	-209.973	0.427356
170167	0.00348358	2.21433	41.2362	60.6218	-210	0.0188397	0.00871599	-209.972	0.427354
167830	0.00348354	2.21433	41.2362	60.6218	-210	0.019102	0.00883728	-209.972	0.427352
165525	0.00348351	2.21433	41.2362	60.6218	-210	0.019368	0.00896025	-209.972	0.427349
163251	0.00348347	2.21433	41.2363	60.6218	-210	0.0196378	0.00908494	-209.971	0.427347
161009	0.00348343	2.21433	41.2363	60.6218	-210	0.0199112	0.00921135	-209.971	0.427345
158798	0.0034834	2.21433	41.2363	60.6218	-210	0.0201885	0.00933953	-209.97	0.427342
156617	0.00348336	2.21433	41.2363	60.6218	-210	0.0204696	0.00946949	-209.97	0.42734
154466	0.00348332	2.21433	41.2363	60.6218	-210	0.0207547	0.00960125	-209.97	0.427337
152345	0.00348328	2.21433	41.2364	60.6218	-210	0.0210437	0.00973485	-209.969	0.427335
150252	0.00348325	2.21433	41.2364	60.6218	-210	0.0213367	0.0098703	-209.969	0.427332
148189	0.00348321	2.21433	41.2364	60.6218	-210	0.0216339	0.0100076	-209.968	0.42733
146153	0.00348317	2.21433	41.2364	60.6218	-210	0.0219351	0.0101469	-209.968	0.427327
144146	0.00348313	2.21433	41.2365	60.6218	-210	0.0222406	0.0102881	-209.967	0.427325
142166	0.00348309	2.21433	41.2365	60.6218	-210	0.0225503	0.0104312	-209.967	0.427322
140214	0.00348304	2.21433	41.2365	60.6218	-210	0.0228643	0.0105763	-209.967	0.427319
138288	0.003483	2.21433	41.2365	60.6218	-210	0.0231827	0.0107235	-209.966	0.427317
136389	0.00348296	2.21433	41.2366	60.6218	-210	0.0235055	0.0108727	-209.966	0.427314
134516	0.00348292	2.21433	41.2366	60.6218	-210	0.0238329	0.011024	-209.965	0.427311
132668	0.00348287	2.21433	41.2366	60.6218	-210	0.0241647	0.0111773	-209.965	0.427308
130846	0.00348283	2.21433	41.2366	60.6218	-210	0.0245012	0.0113329	-209.964	0.427305
129049	0.00348278	2.21433	41.2367	60.6218	-210	0.0248424	0.0114905	-209.964	0.427302
127277	0.00348274	2.21433	41.2367	60.6218	-210	0.0251884	0.0116504	-209.963	0.427299
125529	0.00348269	2.21433	41.2367	60.6218	-210	0.0255391	0.0118125	-209.963	0.427296
123805	0.00348264	2.21433	41.2367	60.6218	-210	0.0258948	0.0119768	-209.962	0.427293
122104	0.0034826	2.21433	41.2368	60.6218	-210	0.0262554	0.0121434	-209.962	0.42729
120427	0.00348255	2.21433	41.2368	60.6218	-210	0.026621	0.0123123	-209.961	0.427287
118773	0.0034825	2.21433	41.2368	60.6218	-210	0.0269917	0.0124836	-209.961	0.427284
117142	0.00348245	2.21433	41.2369	60.6218	-210	0.0273676	0.0126573	-209.96	0.42728
115533	0.0034824	2.21433	41.2369	60.6218	-210	0.0277487	0.0128334	-209.959	0.427277
113946	0.00348235	2.21434	41.2369	60.6218	-210	0.0281351	0.0130119	-209.959	0.427274
112382	0.0034823	2.21434	41.237	60.6218	-210	0.0285269	0.0131929	-209.958	0.42727
110838	0.00348224	2.21434	41.237	60.6218	-210	0.0289241	0.0133764	-209.958	0.427267
109316	0.00348219	2.21434	41.237	60.6218	-210	0.0293269	0.0135625	-209.957	0.427263
107814	0.00348214	2.21434	41.2371	60.6218	-210	0.0297353	0.0137511	-209.957	0.42726
106334	0.00348208	2.21434	41.2371	60.6218	-210	0.0301494	0.0139424	-209.956	0.427256
104873	0.00348203	2.21434	41.2371	60.6218	-210	0.0305692	0.0141363	-209.955	0.427253
103433	0.00348197	2.21434	41.2372	60.6218	-210	0.0309949	0.014333	-209.955	0.427249
102012	0.00348191	2.21434	41.2372	60.6218	-210	0.0314265	0.0145323	-209.954	0.427245
100611	0.00348186	2.21434	41.2372	60.6218	-210	0.0318642	0.0147345	-209.953	0.427242
99229.5	0.0034818	2.21434	41.2373	60.6218	-210	0.0323079	0.0149394	-209.953	0.427238
97866.7	0.00348174	2.21434	41.2373	60.6218	-210	0.0327578	0.0151472	-209.952	0.427234
96522.5	0.00348168	2.21434	41.2373	60.6218	-210	0.0332139	0.0153578	-209.951	0.42723
95196.9	0.00348162	2.21434	41.2374	60.6218	-210	0.0336765	0.0155714	-209.951	0.427226
93889.4	0.00348155	2.21434	41.2374	60.6218	-210	0.0341454	0.015788	-209.95	0.427222
92599.9	0.00348149	2.21434	41.2374	60.6218	-210	0.0346209	0.0160076	-209.949	0.427218
91328.2	0.00348143	2.21434	41.2375	60.6218	-210	0.035103	0.0162302	-209.949	0.427214
90073.9	0.00348136	2.21434	41.2375	60.6218	-210	0.0355918	0.0164559	-209.948	0.427209
88836.8	0.0034813	2.21434	41.2376	60.6218	-210	0.0360875	0.0166848	-209.947	0.427205
87616.7	0.00348123	2.21434	41.2376	60.6218	-210	0.03659	0.0169168	-209.946	0.427201
86413.3	0.00348116	2.21434	41.2376	60.6218	-210	0.0370995	0.017152	-209.946	0.427196
85226.5	0.0034811	2.21434	41.2377	60.6218	-210	0.0376162	0.0173905	-209.945	0.427192
84056	0.00348103	2.21435	41.2377	60.6218	-210	0.03814	0.0176324	-209.944	0.427187
82901.6	0.00348096	2.21435	41.2378	60.6218	-210	0.0386711	0.0178776	-209.943	0.427183
81763	0.00348089	2.21435	41.2378	60.6218	-210	0.0392096	0.0181261	-209.943	0.427178
80640	0.00348081	2.21435	41.2379	60.6218	-210	0.0397556	0.0183782	-209.942	0.427173
79532.5	0.00348074	2.21435	41.2379	60.6218	-210	0.0403092	0.0186337	-209.941	0.427169
78440.2	0.00348067	2.21435	41.2379	60.6218	-210	0.0408706	0.0188928	-209.94	0.427164
77362.9	0.00348059	2.21435	41.238	60.6218	-210	0.0414397	0.0191555	-209.939	0.427159
76300.4	0.00348051	2.21435	41.238	60.6218	-210	0.0420168	0.0194218	-209.939	0.427154
75252.5	0.00348044	2.21435	41.2381	60.6218	-210	0.0426019	0.0196919	-209.938	0.427149
74218.9	0.00348036	2.21435	41.2381	60.6218	-210	0.0431951	0.0199656	-209.937	0.427144
73199.6	0.00348028	2.21435	41.2382	60.6218	-210	0.0437966	0.0202432	-209.936	0.427139
72194.3	0.0034802	2.21435	41.2382	60.6218	-210	0.0444065	0.0205246	-209.935	0.427133
71202.7	0.00348012	2.21435	41.2383	60.6218	-210	0.0450249	0.02081	-209.934	0.427128
70224.8	0.00348003	2.21435	41.2383	60.6218	-210	0.0456519	0.0210993	-209.933	0.427123
69260.3	0.00347995	2.21435	41.2384	60.6218	-210	0.0462876	0.0213926	-209.932	0.427117
68309.1	0.00347987	2.21435	41.2384	60.6218	-210	0.0469322	0.02169	-209.931	0.427112
67370.9	0.00347978	2.21436	41.2385	60.6218	-210	0.0475857	0.0219915	-209.93	0.427106
66445.7	0.00347969	2.21436	41.2385	60.6218	-210	0.0482484	0.0222972	-209.929	0.4271
65533.1	0.0034796	2.21436	41.2386	60.6218	-210	0.0489202	0.0226071	-209.928	0.427094
64633	0.00347951	2.21436	41.2386	60.6218	-210	0.0496015	0.0229213	-209.927	0.427089
63745.4	0.00347942	2.21436	41.2387	60.6218	-210	0.0502922	0.0232399	-209.926	0.427083
62869.9	0.00347933	2.21436	41.2388	60.6218	-210	0.0509925	0.023563	-209.925	0.427076
62006.4	0.00347924	2.21436	41.2388	60.6218	-210	0.0517026	0.0238905	-209.924	0.42707
61154.8	0.00347914	2.21436	41.2389	60.6218	-210	0.0524226	0.0242225	-209.923	0.427064
60314.9	0.00347904	2.21436	41.2389	60.6218	-210	0.0531526	0.0245591	-209.922	0.427058
59486.5	0.00347895	2.21436	41.239	60.6218	-210	0.0538928	0.0249005	-209.921	0.427051
58669.5	0.00347885	2.21436	41.239	60.6218	-210	0.0546432	0.0252465	-209.92	0.427045
57863.7	0.00347875	2.21436	41.2391	60.6218	-210	0.0554042	0.0255973	-209.919	0.427038
57069	0.00347864	2.21436	41.2392	60.6218	-210	0.0561737	0.025955	-209.918	0.427032
56285.2	0.00347854	2.21437	41.2392	60.6218	-210	0.056956	0.0263157	-209.917	0.427025
55512.2	0.00347844	2.21437	41.2393	60.6218	-210	0.0577491	0.0266813	-209.916	0.427018
54749.8	0.00347833	2.21437	41.2394	60.6218	-210	0.0585533	0.0270521	-209.914	0.427011
53997.9	0.00347822	2.21437	41.2394	60.6218	-210	0.0593687	0.027428	-209.913	0.427004
53256.2	0.00347811	2.21437	41.2395	60.6218	-210	0.0601954	0.0278091	-209.912	0.426997
52524.8	0.003478	2.21437	41.2396	60.6218	-210	0.0610336	0.0281954	-209.911	0.42699
51803.4	0.00347789	2.21437	41.2396	60.6218	-210	0.0618836	0.0285872	-209.909	0.426982
51092	0.00347778	2.21437	41.2397	60.6218	-210	0.0627453	0.0289843	-209.908	0.426975
50390.2	0.00347766	2.21437	41.2398	60.6218	-210	0.0636191	0.029387	-209.907	0.426968
49698.2	0.00347754	2.21437	41.2398	60.6218	-210	0.064505	0.0297952	-209.906	0.42696
49015.6	0.00347743	2.21437	41.2399	60.6218	-210	0.0654032	0.0302091	-209.904	0.426952
48342.4	0.00347731	2.21437	41.24	60.6218	-210	0.066314	0.0306288	-209.903	0.426944
47678.5	0.00347718	2.21438	41.2401	60.6218	-210	0.0672374	0.0310542	-209.902	0.426936
47023.7	0.00347706	2.21438	41.2401	60.6218	-210	0.0681737	0.0314856	-209.9	0.426928
46377.8	0.00347693	2.21438	41.2402	60.6218	-210	0.0691231	0.0319229	-209.899	0.42692
45740.9	0.00347681	2.21438	41.2403	60.6218	-210	0.0700857	0.0323663	-209.898	0.426912
45112.7	0.00347668	2.21438	41.2404	60.6218	-210	0.0710616	0.0328158	-209.896	0.426903
44493.1	0.00347655	2.21438	41.2404	60.6218	-210	0.0720512	0.0332716	-209.895	0.426895
43882	0.00347642	2.21438	41.2405	60.6218	-210	0.0730545	0.0337337	-209.893	0.426886
43279.3	0.00347628	2.21438	41.2406	60.6218	-210	0.0740718	0.0342021	-209.892	0.426877
42684.9	0.00347615	2.21438	41.2407	60.6218	-210	0.0751033	0.0346771	-209.89	0.426868
42098.7	0.00347601	2.21439	41.2408	60.6218	-210	0.0761491	0.0351586	-209.889	0.426859
41520.5	0.00347587	2.21439	41.2408	60.6218	-210	0.0772095	0.0356468	-209.887	0.42685
40950.2	0.00347573	2.21439	41.2409	60.6218	-210	0.0782847	0.0361418	-209.886	0.426841
40387.8	0.00347558	2.21439	41.241	60.6218	-210	0.0793748	0.0366436	-209.884	0.426832
39833.1	0.00347544	2.21439	41.2411	60.6218	-210	0.0804801	0.0371524	-209.882	0.426822
39286.1	0.00347529	2.21439	41.2412	60.6218	-210	0.0815966	0.0376724	-209.881	0.426812
38746.5	0.00347514	2.21439	41.2413	60.6218	-210	0.0827328	0.0381954	-209.879	0.426803
38214.3	0.00347499	2.21439	41.2414	60.6218	-210	0.0838849	0.0387256	-209.877	0.426793
37689.5	0.00347483	2.21439	41.2415	60.6218	-210	0.0850531	0.0392632	-209.876	0.426782
37171.9	0.00347467	2.2144	41.2416	60.6218	-210	0.0862374	0.0398082	-209.874	0.426772
36661.3	0.00347452	2.2144	41.2417	60.6218	-210	0.0874383	0.0403607	-209.872	0.426762
36157.8	0.00347436	2.2144	41.2418	60.6218	-210	0.0886559	0.0409209	-209.87	0.426751
35661.2	0.00347419	2.2144	41.2419	60.6218	-210	0.0898905	0.0414889	-209.869	0.426741
35171.5	0.00347403	2.2144	41.242	60.6218	-210	0.0911423	0.0420647	-209.867	0.42673
34688.4	0.00347386	2.2144	41.2421	60.6218	-210	0.0924115	0.0426484	-209.865	0.426719
34212	0.00347369	2.2144	41.2422	60.6218	-210	0.0936983	0.0432403	-209.863	0.426708
33742.1	0.00347352	2.21441	41.2423	60.6218	-210	0.0950031	0.0438403	-209.861	0.426697
33278.7	0.00347334	2.21441	41.2424	60.6218	-210	0.096326	0.0444486	-209.859	0.426685
32821.6	0.00347317	2.21441	41.2425	60.6218	-210	0.0976674	0.0450653	-209.857	0.426674
32370.9	0.00347299	2.21441	41.2426	60.6218	-210	0.0990275	0.0456906	-209.855	0.426662
31926.3	0.0034728	2.21441	41.2427	60.6218	-210	0.100406	0.0463245	-209.853	0.42665
31487.8	0.00347262	2.21441	41.2428	60.6218	-210	0.1018	0.0469713	-209.851	0.426638
31055.3	0.00347243	2.21441	41.2429	60.6218	-210	0.103218	0.0476229	-209.849	0.426626
30628.8	0.00347224	2.21442	41.243	60.6218	-210	0.104655	0.0482835	-209.847	0.426613
30208.2	0.00347205	2.21442	41.2432	60.6218	-210	0.106113	0.0489532	-209.845	0.426601
29793.3	0.00347186	2.21442	41.2433	60.6218	-210	0.10759	0.0496321	-209.843	0.426588
29384.1	0.00347166	2.21442	41.2434	60.6218	-210	0.109089	0.0503205	-209.84	0.426575
28980.5	0.00347146	2.21442	41.2435	60.6218	-210	0.110608	0.0510183	-209.838	0.426562
28582.5	0.00347125	2.21442	41.2436	60.6218	-210	0.112148	0.0517258	-209.836	0.426549
28189.9	0.00347105	2.21442	41.2438	60.6218	-210	0.11371	0.0524431	-209.834	0.426535
27802.8	0.00347084	2.21443	41.2439	60.6218	-210	0.11529	0.0531737	-209.831	0.426521
27420.9	0.00347063	2.21443	41.244	60.6218	-210	0.116895	0.053911	-209.829	0.426508
27044.3	0.00347041	2.21443	41.2442	60.6218	-210	0.118523	0.0546584	-209.827	0.426494
26672.9	0.00347019	2.21443	41.2443	60.6218	-210	0.120173	0.0554161	-209.824	0.426479
26306.6	0.00346997	2.21443	41.2444	60.6218	-210	0.121847	0.0561843	-209.822	0.426465
25945.3	0.00346975	2.21443	41.2446	60.6218	-210	0.123544	0.0569631	-209.819	0.42645
25588.9	0.00346952	2.21444	41.2447	60.6218	-210	0.125264	0.0577527	-209.817	0.426435
25237.5	0.00346929	2.21444	41.2448	60.6218	-210	0.127008	0.0585531	-209.814	0.42642
24890.9	0.00346906	2.21444	41.245	60.6218	-210	0.128777	0.0593646	-209.812	0.426405
24549	0.00346882	2.21444	41.2451	60.6218	-210	0.13057	0.0601873	-209.809	0.42639
24211.9	0.00346858	2.21444	41.2453	60.6218	-210	0.132384	0.0610255	-209.806	0.426374
23879.3	0.00346834	2.21445	41.2454	60.6218	-210	0.134228	0.061871	-209.804	0.426358
23551.4	0.00346809	2.21445	41.2456	60.6218	-210	0.136097	0.0627283	-209.801	0.426342
23227.9	0.00346784	2.21445	41.2457	60.6218	-210	0.137992	0.0635973	-209.798	0.426325
22908.9	0.00346759	2.21445	41.2459	60.6218	-210	0.139914	0.0644783	-209.795	0.426309
22594.3	0.00346733	2.21445	41.246	60.6218	-210	0.141862	0.0653715	-209.793	0.426292
22283.9	0.00346707	2.21446	41.2462	60.6218	-210	0.143838	0.0662769	-209.79	0.426275
21977.9	0.00346681	2.21446	41.2463	60.6218	-210	0.145836	0.0671993	-209.787	0.426258
21676	0.00346654	2.21446	41.2465	60.6218	-210	0.147867	0.0681299	-209.784	0.42624
21378.3	0.00346627	2.21446	41.2467	60.6218	-210	0.149926	0.0690733	-209.781	0.426222
21084.7	0.00346599	2.21446	41.2468	60.6218	-210	0.152014	0.0700298	-209.778	0.426204
20795.2	0.00346571	2.21447	41.247	60.6218	-210	0.154131	0.0709994	-209.775	0.426186
20509.5	0.00346543	2.21447	41.2472	60.6218	-210	0.156277	0.0719823	-209.772	0.426168
20227.9	0.00346514	2.21447	41.2473	60.6218	-210	0.158453	0.0729788	-209.768	0.426149
19950.1	0.00346485	2.21447	41.2475	60.6218	-210	0.160655	0.0739938	-209.765	0.42613
19676.1	0.00346456	2.21448	41.2477	60.6218	-210	0.162892	0.075018	-209.762	0.42611
19405.8	0.00346426	2.21448	41.2479	60.6218	-210	0.16516	0.0760562	-209.759	0.426091
19139.3	0.00346395	2.21448	41.2481	60.6218	-210	0.16746	0.0771087	-209.755	0.426071
18876.4	0.00346365	2.21448	41.2483	60.6218	-210	0.169792	0.0781757	-209.752	0.426051
18617.2	0.00346333	2.21449	41.2484	60.6218	-210	0.172157	0.0792574	-209.748	0.426031
18361.5	0.00346302	2.21449	41.2486	60.6218	-210	0.174549	0.0803589	-209.745	0.42601
18109.3	0.0034627	2.21449	41.2488	60.6218	-210	0.17698	0.0814705	-209.741	0.425989
17860.6	0.00346237	2.21449	41.249	60.6218	-210	0.179444	0.0825975	-209.738	0.425968
17615.3	0.00346204	2.2145	41.2492	60.6218	-210	0.181943	0.0837399	-209.734	0.425946
17373.4	0.00346171	2.2145	41.2494	60.6218	-210	0.184476	0.084898	-209.73	0.425924
17134.8	0.00346137	2.2145	41.2496	60.6218	-210	0.18704	0.0860769	-209.727	0.425902
16899.4	0.00346103	2.2145	41.2498	60.6218	-210	0.189645	0.0872671	-209.723	0.425879
16667.3	0.00346068	2.21451	41.2501	60.6218	-210	0.192286	0.0884736	-209.719	0.425857
16438.4	0.00346033	2.21451	41.2503	60.6218	-210	0.194964	0.0896967	-209.715	0.425834
16212.6	0.00345997	2.21451	41.2505	60.6218	-210	0.197678	0.0909366	-209.711	0.42581
15990	0.0034596	2.21452	41.2507	60.6218	-210	0.200426	0.092199	-209.707	0.425786
15770.4	0.00345924	2.21452	41.2509	60.6218	-210	0.203217	0.0934732	-209.703	0.425762
15553.8	0.00345886	2.21452	41.2512	60.6218	-210	0.206046	0.0947648	-209.699	0.425738
15340.2	0.00345849	2.21452	41.2514	60.6218	-210	0.208916	0.0960742	-209.695	0.425713
15129.5	0.0034581	2.21453	41.2516	60.6218	-210	0.211825	0.0974015	-209.69	0.425688
14921.7	0.00345771	2.21453	41.2519	60.6218	-210	0.214769	0.098753	-209.686	0.425662
14716.8	0.00345732	2.21453	41.2521	60.6218	-210	0.217759	0.100117	-209.682	0.425637
14514.6	0.00345692	2.21454	41.2523	60.6218	-210	0.220792	0.1015	-209.677	0.425611
14315.3	0.00345651	2.21454	41.2526	60.6218	-210	0.223866	0.102901	-209.673	0.425584
14118.7	0.0034561	2.21454	41.2528	60.6218	-210	0.226978	0.104328	-209.668	0.425557
13924.8	0.00345569	2.21455	41.2531	60.6218	-210	0.230138	0.105769	-209.664	0.42553
13733.5	0.00345526	2.21455	41.2534	60.6218	-210	0.233343	0.107229	-209.659	0.425502
13544.9	0.00345483	2.21455	41.2536	60.6218	-210	0.236587	0.108714	-209.654	0.425474
13358.9	0.0034544	2.21456	41.2539	60.6218	-210	0.239882	0.110214	-209.649	0.425446
13175.4	0.00345396	2.21456	41.2541	60.6218	-209.999	0.243222	0.111735	-209.645	0.425417
12994.4	0.00345351	2.21456	41.2544	60.6218	-209.999	0.246605	0.113281	-209.64	0.425388
12816	0.00345306	2.21457	41.2547	60.6218	-209.999	0.250039	0.114844	-209.635	0.425358
12640	0.0034526	2.21457	41.255	60.6218	-209.999	0.253521	0.116428	-209.629	0.425328
12466.4	0.00345214	2.21458	41.2553	60.6219	-209.999	0.257045	0.11804	-209.624	0.425297
12295.2	0.00345167	2.21458	41.2555	60.6219	-209.999	0.260624	0.119668	-209.619	0.425267
12126.3	0.00345119	2.21458	41.2558	60.6219	-209.999	0.264249	0.121322	-209.614	0.425235
11959.7	0.0034507	2.21459	41.2561	60.6219	-209.999	0.267929	0.122994	-209.608	0.425203
